#
#
#     rho[m²/m²] v[m/min]
      0.01     54.87
      0.02     52.83
      0.04     48.99
      0.06     45.46
      0.08     42.23
      0.10     39.27
      0.12     36.58
      0.14     34.13
      0.16     31.91
      0.18     29.90
      0.20     28.10
      0.22     26.48
      0.24     25.04
      0.26     23.75
      0.28     22.61
      0.30     21.61
      0.32     20.72
      0.34     19.95
      0.36     19.28
      0.38     18.69
      0.40     18.19
      0.42     17.75
      0.44     17.37
      0.46     17.04
      0.48     16.75
      0.50     16.50
      0.52     16.27
      0.54     16.06
      0.56     15.86
      0.58     15.67
      0.60     15.48
      0.62     15.27
      0.64     15.06
      0.66     14.83
      0.68     14.58
      0.70     14.31
      0.72     14.01
      0.74     13.68
      0.76     13.31
      0.78     12.91
      0.80     12.48
      0.82     12.00
      0.84     11.48
      0.86     10.93
      0.88     10.34
      0.90      9.70
      0.92      9.08
